Figure 2. Oxygen charge state distribution as a function of ion energy.  The high charge state peaks have dramatically shifted to lower energies than previous models produced.  Houston et al. (2018) and Ozak et al. (2010) had the peak of O^{6+} at ∼900 keV/u; however, due to the use of newly developed SIM cross-sections, the peak has now shifted down to an energy of ∼350 keV/u.

 Energy [keV/u] ONeg      O         O+        O2+       O3+       O4+       O5+       O6+       O7+       O8+
     2.50       3.06E-01  5.27E-01  1.29E-01  3.74E-02  1.02E-03  3.24E-05  1.29E-07  0.00E+00  0.00E+00  0.00E+00
     7.50       2.51E-01  5.10E-01  1.74E-01  6.03E-02  4.70E-03  1.97E-04  2.53E-06  0.00E+00  0.00E+00  0.00E+00
    12.50       1.75E-01  4.80E-01  2.40E-01  9.35E-02  1.06E-02  5.44E-04  9.18E-06  3.72E-08  0.00E+00  0.00E+00
    17.50       1.18E-01  4.45E-01  2.95E-01  1.24E-01  1.67E-02  1.01E-03  2.22E-05  1.78E-07  0.00E+00  0.00E+00
    22.50       8.33E-02  4.06E-01  3.32E-01  1.52E-01  2.43E-02  1.81E-03  4.98E-05  5.95E-07  0.00E+00  0.00E+00
    27.50       6.05E-02  3.64E-01  3.58E-01  1.80E-01  3.41E-02  3.11E-03  1.09E-04  1.52E-06  0.00E+00  0.00E+00
    32.50       4.48E-02  3.21E-01  3.74E-01  2.09E-01  4.61E-02  5.09E-03  2.10E-04  4.46E-06  0.00E+00  0.00E+00
    37.50       3.37E-02  2.77E-01  3.80E-01  2.39E-01  6.09E-02  8.22E-03  4.06E-04  1.30E-05  0.00E+00  0.00E+00
    42.50       2.53E-02  2.36E-01  3.79E-01  2.69E-01  7.85E-02  1.25E-02  7.05E-04  2.41E-05  0.00E+00  0.00E+00
    47.50       1.90E-02  1.97E-01  3.69E-01  2.97E-01  9.83E-02  1.84E-02  1.23E-03  5.12E-05  0.00E+00  0.00E+00
    52.50       1.44E-02  1.63E-01  3.54E-01  3.22E-01  1.20E-01  2.46E-02  1.84E-03  8.93E-05  0.00E+00  0.00E+00
    57.50       1.08E-02  1.34E-01  3.34E-01  3.43E-01  1.43E-01  3.18E-02  2.56E-03  1.32E-04  0.00E+00  0.00E+00
    62.50       8.12E-03  1.10E-01  3.12E-01  3.60E-01  1.67E-01  4.00E-02  3.53E-03  1.88E-04  8.18E-08  0.00E+00
    67.50       6.18E-03  8.87E-02  2.85E-01  3.71E-01  1.93E-01  5.03E-02  4.91E-03  3.11E-04  8.07E-08  0.00E+00
    72.50       4.62E-03  7.11E-02  2.56E-01  3.77E-01  2.22E-01  6.29E-02  6.92E-03  4.72E-04  8.85E-08  0.00E+00
    77.50       3.11E-03  5.54E-02  2.24E-01  3.74E-01  2.53E-01  7.96E-02  9.84E-03  7.53E-04  2.65E-07  0.00E+00
    82.50       1.97E-03  4.23E-02  1.91E-01  3.65E-01  2.84E-01  1.01E-01  1.39E-02  1.19E-03  7.68E-07  0.00E+00
    87.50       1.23E-03  3.19E-02  1.60E-01  3.47E-01  3.13E-01  1.26E-01  1.93E-02  1.85E-03  1.14E-06  0.00E+00
    92.50       7.44E-04  2.35E-02  1.32E-01  3.24E-01  3.38E-01  1.54E-01  2.60E-02  2.84E-03  3.14E-06  0.00E+00
    97.50       4.68E-04  1.72E-02  1.07E-01  2.97E-01  3.56E-01  1.83E-01  3.49E-02  4.24E-03  4.35E-06  2.63E-07
   102.50       3.14E-04  1.28E-02  8.57E-02  2.68E-01  3.68E-01  2.13E-01  4.55E-02  6.23E-03  7.40E-06  0.00E+00
   107.50       2.29E-04  9.27E-03  6.82E-02  2.40E-01  3.73E-01  2.43E-01  5.77E-02  8.73E-03  1.10E-05  9.16E-07
   112.50       1.61E-04  6.86E-03  5.41E-02  2.12E-01  3.71E-01  2.72E-01  7.20E-02  1.19E-02  1.86E-05  1.66E-07
   117.50       1.26E-04  4.89E-03  4.30E-02  1.85E-01  3.64E-01  2.98E-01  8.81E-02  1.63E-02  2.77E-05  1.18E-06
   122.50       9.04E-05  3.63E-03  3.37E-02  1.60E-01  3.52E-01  3.23E-01  1.06E-01  2.14E-02  4.87E-05  3.29E-06
   127.50       6.32E-05  2.62E-03  2.65E-02  1.38E-01  3.37E-01  3.42E-01  1.25E-01  2.83E-02  7.21E-05  3.37E-06
   132.50       4.69E-05  1.89E-03  2.08E-02  1.18E-01  3.18E-01  3.60E-01  1.46E-01  3.57E-02  1.10E-04  4.71E-06
   137.50       3.40E-05  1.39E-03  1.59E-02  9.97E-02  2.97E-01  3.73E-01  1.68E-01  4.47E-02  1.55E-04  8.62E-06
   142.50       2.40E-05  9.80E-04  1.23E-02  8.38E-02  2.74E-01  3.82E-01  1.91E-01  5.57E-02  2.39E-04  7.18E-06
   147.50       1.81E-05  7.17E-04  9.56E-03  7.00E-02  2.52E-01  3.86E-01  2.13E-01  6.78E-02  3.26E-04  1.34E-05
   152.50       1.20E-05  5.23E-04  7.29E-03  5.81E-02  2.29E-01  3.88E-01  2.35E-01  8.16E-02  4.21E-04  2.23E-05
   157.50       9.11E-06  3.71E-04  5.50E-03  4.81E-02  2.07E-01  3.84E-01  2.57E-01  9.69E-02  6.15E-04  3.15E-05
   162.50       6.73E-06  2.74E-04  4.27E-03  3.96E-02  1.85E-01  3.78E-01  2.78E-01  1.14E-01  7.84E-04  4.11E-05
   167.50       5.02E-06  1.97E-04  3.21E-03  3.25E-02  1.65E-01  3.69E-01  2.97E-01  1.31E-01  1.01E-03  5.34E-05
   172.50       2.70E-06  1.20E-04  2.40E-03  2.60E-02  1.46E-01  3.57E-01  3.16E-01  1.51E-01  1.31E-03  6.51E-05
   177.50       2.05E-06  9.88E-05  1.87E-03  2.13E-02  1.29E-01  3.43E-01  3.31E-01  1.72E-01  1.73E-03  9.54E-05
   182.50       1.57E-06  7.10E-05  1.37E-03  1.72E-02  1.12E-01  3.27E-01  3.47E-01  1.93E-01  2.11E-03  9.64E-05
   187.50       1.29E-06  4.88E-05  1.06E-03  1.39E-02  9.78E-02  3.11E-01  3.59E-01  2.14E-01  2.63E-03  1.56E-04
   192.50       8.92E-07  3.56E-05  7.95E-04  1.13E-02  8.54E-02  2.92E-01  3.69E-01  2.38E-01  3.25E-03  1.75E-04
   197.50       5.84E-07  2.30E-05  6.16E-04  8.94E-03  7.34E-02  2.75E-01  3.76E-01  2.62E-01  4.04E-03  2.33E-04
   202.50       6.34E-07  2.35E-05  4.48E-04  7.06E-03  6.33E-02  2.56E-01  3.83E-01  2.86E-01  4.82E-03  3.11E-04
   207.50       3.72E-07  1.46E-05  3.29E-04  5.57E-03  5.39E-02  2.37E-01  3.88E-01  3.10E-01  5.89E-03  3.71E-04
   212.50       1.83E-07  9.03E-06  2.58E-04  4.51E-03  4.62E-02  2.19E-01  3.89E-01  3.34E-01  6.56E-03  4.23E-04
   217.50       6.03E-08  5.30E-06  1.84E-04  3.58E-03  3.91E-02  2.01E-01  3.90E-01  3.58E-01  7.98E-03  5.53E-04
   222.50       4.84E-07  4.16E-06  1.45E-04  2.82E-03  3.32E-02  1.85E-01  3.87E-01  3.81E-01  9.48E-03  6.33E-04
   227.50       5.95E-08  3.14E-06  9.83E-05  2.26E-03  2.82E-02  1.70E-01  3.85E-01  4.04E-01  1.07E-02  7.26E-04
   232.50       5.64E-08  4.02E-06  8.31E-05  1.79E-03  2.39E-02  1.54E-01  3.80E-01  4.26E-01  1.27E-02  9.70E-04
   237.50       0.00E+00  1.60E-06  5.70E-05  1.40E-03  2.01E-02  1.40E-01  3.74E-01  4.50E-01  1.41E-02  1.11E-03
   242.50       5.39E-08  1.10E-06  4.40E-05  1.07E-03  1.71E-02  1.28E-01  3.65E-01  4.72E-01  1.61E-02  1.37E-03
   247.50       0.00E+00  8.51E-07  3.37E-05  9.08E-04  1.44E-02  1.15E-01  3.57E-01  4.92E-01  1.86E-02  1.53E-03
   252.50       0.00E+00  1.17E-06  2.71E-05  7.00E-04  1.21E-02  1.05E-01  3.48E-01  5.12E-01  2.07E-02  1.76E-03
   257.50       0.00E+00  6.99E-07  2.12E-05  5.51E-04  1.03E-02  9.51E-02  3.39E-01  5.29E-01  2.33E-02  2.25E-03
   262.50       5.61E-08  3.85E-07  1.46E-05  4.68E-04  8.90E-03  8.64E-02  3.27E-01  5.48E-01  2.64E-02  2.59E-03
   267.50       0.00E+00  1.53E-07  1.26E-05  3.82E-04  7.33E-03  7.78E-02  3.18E-01  5.65E-01  2.93E-02  2.83E-03
   272.50       0.00E+00  0.00E+00  6.42E-06  2.85E-04  6.42E-03  7.04E-02  3.08E-01  5.80E-01  3.23E-02  3.29E-03
   277.50       0.00E+00  0.00E+00  5.97E-06  2.61E-04  5.45E-03  6.38E-02  2.96E-01  5.95E-01  3.56E-02  3.73E-03
   282.50       0.00E+00  0.00E+00  4.13E-06  1.83E-04  4.51E-03  5.74E-02  2.85E-01  6.09E-01  3.89E-02  4.35E-03
   287.50       0.00E+00  0.00E+00  2.91E-06  1.63E-04  3.77E-03  5.15E-02  2.75E-01  6.22E-01  4.28E-02  4.76E-03
   292.50       0.00E+00  1.59E-07  2.50E-06  1.20E-04  3.34E-03  4.72E-02  2.63E-01  6.35E-01  4.53E-02  5.70E-03
   297.50       0.00E+00  0.00E+00  2.28E-06  8.46E-05  2.70E-03  4.21E-02  2.52E-01  6.46E-01  5.06E-02  6.30E-03
   302.50       0.00E+00  3.80E-07  1.83E-06  8.19E-05  2.35E-03  3.79E-02  2.41E-01  6.58E-01  5.39E-02  6.94E-03
   307.50       0.00E+00  0.00E+00  1.33E-06  6.96E-05  2.08E-03  3.41E-02  2.30E-01  6.66E-01  5.92E-02  8.05E-03
   312.50       0.00E+00  0.00E+00  9.83E-07  5.82E-05  1.71E-03  3.08E-02  2.20E-01  6.75E-01  6.36E-02  9.10E-03
   317.50       0.00E+00  0.00E+00  1.52E-06  3.90E-05  1.42E-03  2.79E-02  2.11E-01  6.81E-01  6.82E-02  9.91E-03
   322.50       0.00E+00  0.00E+00  3.97E-07  3.74E-05  1.23E-03  2.48E-02  2.00E-01  6.88E-01  7.33E-02  1.19E-02
   327.50       0.00E+00  0.00E+00  4.34E-07  2.99E-05  1.05E-03  2.27E-02  1.91E-01  6.93E-01  7.90E-02  1.28E-02
   332.50       0.00E+00  0.00E+00  9.13E-07  2.45E-05  9.08E-04  2.05E-02  1.83E-01  6.99E-01  8.30E-02  1.43E-02
   337.50       0.00E+00  0.00E+00  3.54E-07  1.88E-05  7.68E-04  1.86E-02  1.74E-01  7.02E-01  8.90E-02  1.59E-02
   342.50       0.00E+00  0.00E+00  3.50E-07  1.42E-05  7.00E-04  1.69E-02  1.65E-01  7.06E-01  9.42E-02  1.72E-02
   347.50       0.00E+00  0.00E+00  3.54E-07  7.31E-06  5.62E-04  1.48E-02  1.57E-01  7.06E-01  1.02E-01  1.93E-02
   352.50       0.00E+00  0.00E+00  1.84E-07  9.45E-06  4.75E-04  1.37E-02  1.50E-01  7.10E-01  1.06E-01  2.12E-02
   357.50       0.00E+00  0.00E+00  5.25E-08  9.51E-06  4.25E-04  1.22E-02  1.42E-01  7.10E-01  1.12E-01  2.36E-02
   362.50       0.00E+00  0.00E+00  1.95E-07  7.70E-06  3.29E-04  1.08E-02  1.35E-01  7.08E-01  1.20E-01  2.60E-02
   367.50       0.00E+00  0.00E+00  0.00E+00  7.99E-06  3.06E-04  9.98E-03  1.27E-01  7.09E-01  1.25E-01  2.81E-02
   372.50       0.00E+00  0.00E+00  1.31E-07  6.84E-06  2.58E-04  8.93E-03  1.22E-01  7.06E-01  1.31E-01  3.12E-02
   377.50       0.00E+00  0.00E+00  0.00E+00  5.64E-06  2.28E-04  7.85E-03  1.15E-01  7.06E-01  1.38E-01  3.37E-02
   382.50       0.00E+00  0.00E+00  0.00E+00  1.73E-06  2.05E-04  7.13E-03  1.08E-01  7.02E-01  1.46E-01  3.65E-02
   387.50       0.00E+00  0.00E+00  0.00E+00  3.99E-06  1.51E-04  6.54E-03  1.03E-01  6.97E-01  1.53E-01  4.11E-02
   392.50       0.00E+00  0.00E+00  0.00E+00  1.98E-06  1.56E-04  5.94E-03  9.74E-02  6.95E-01  1.58E-01  4.35E-02
   397.50       0.00E+00  0.00E+00  0.00E+00  1.28E-06  1.01E-04  5.25E-03  9.18E-02  6.89E-01  1.67E-01  4.67E-02
   402.50       0.00E+00  0.00E+00  0.00E+00  1.73E-06  9.37E-05  4.63E-03  8.65E-02  6.86E-01  1.73E-01  5.00E-02
   407.50       0.00E+00  0.00E+00  2.77E-07  1.51E-06  8.91E-05  4.33E-03  8.11E-02  6.76E-01  1.83E-01  5.55E-02
   412.50       0.00E+00  0.00E+00  0.00E+00  1.95E-06  8.24E-05  3.96E-03  7.71E-02  6.70E-01  1.89E-01  6.05E-02
   417.50       0.00E+00  0.00E+00  0.00E+00  5.94E-07  6.85E-05  3.45E-03  7.37E-02  6.64E-01  1.96E-01  6.28E-02
   422.50       0.00E+00  0.00E+00  0.00E+00  6.18E-07  6.91E-05  3.32E-03  6.92E-02  6.59E-01  2.00E-01  6.82E-02
   427.50       0.00E+00  0.00E+00  0.00E+00  5.93E-07  4.52E-05  2.91E-03  6.49E-02  6.50E-01  2.07E-01  7.54E-02
   432.50       0.00E+00  0.00E+00  0.00E+00  1.49E-07  4.02E-05  2.56E-03  6.18E-02  6.43E-01  2.14E-01  7.89E-02
   437.50       0.00E+00  0.00E+00  0.00E+00  6.27E-07  4.54E-05  2.46E-03  5.81E-02  6.37E-01  2.19E-01  8.29E-02
   442.50       0.00E+00  0.00E+00  0.00E+00  1.92E-07  2.99E-05  2.05E-03  5.40E-02  6.22E-01  2.31E-01  9.05E-02
   447.50       0.00E+00  0.00E+00  0.00E+00  5.21E-07  3.33E-05  1.91E-03  5.14E-02  6.12E-01  2.38E-01  9.71E-02
   452.50       0.00E+00  0.00E+00  0.00E+00  6.10E-07  2.45E-05  1.78E-03  4.84E-02  6.01E-01  2.45E-01  1.03E-01
   457.50       0.00E+00  0.00E+00  0.00E+00  4.75E-07  3.00E-05  1.63E-03  4.58E-02  5.94E-01  2.49E-01  1.10E-01
   462.50       0.00E+00  0.00E+00  0.00E+00  1.85E-07  2.32E-05  1.38E-03  4.30E-02  5.84E-01  2.56E-01  1.15E-01
   467.50       0.00E+00  0.00E+00  0.00E+00  4.50E-08  2.24E-05  1.35E-03  4.02E-02  5.69E-01  2.66E-01  1.23E-01
   472.50       0.00E+00  0.00E+00  0.00E+00  0.00E+00  1.61E-05  1.20E-03  3.77E-02  5.62E-01  2.71E-01  1.28E-01
   477.50       0.00E+00  0.00E+00  0.00E+00  9.19E-08  1.01E-05  1.11E-03  3.59E-02  5.50E-01  2.78E-01  1.35E-01
   482.50       0.00E+00  0.00E+00  0.00E+00  0.00E+00  1.04E-05  9.41E-04  3.36E-02  5.39E-01  2.83E-01  1.44E-01
   487.50       0.00E+00  0.00E+00  0.00E+00  0.00E+00  7.03E-06  9.36E-04  3.18E-02  5.27E-01  2.87E-01  1.53E-01
   492.50       0.00E+00  0.00E+00  0.00E+00  5.75E-07  1.03E-05  8.09E-04  2.94E-02  5.15E-01  2.97E-01  1.59E-01
   497.50       0.00E+00  0.00E+00  0.00E+00  0.00E+00  6.13E-06  6.73E-04  2.73E-02  5.04E-01  3.00E-01  1.69E-01
   502.50       0.00E+00  0.00E+00  0.00E+00  0.00E+00  8.07E-06  6.27E-04  2.60E-02  4.90E-01  3.05E-01  1.78E-01
   507.50       0.00E+00  0.00E+00  0.00E+00  0.00E+00  6.70E-06  5.65E-04  2.44E-02  4.80E-01  3.10E-01  1.86E-01
   512.50       0.00E+00  0.00E+00  0.00E+00  0.00E+00  5.29E-06  5.58E-04  2.31E-02  4.68E-01  3.13E-01  1.95E-01
   517.50       0.00E+00  0.00E+00  0.00E+00  0.00E+00  5.64E-06  4.66E-04  2.13E-02  4.53E-01  3.19E-01  2.06E-01
   522.50       0.00E+00  0.00E+00  0.00E+00  0.00E+00  5.86E-06  3.86E-04  1.98E-02  4.42E-01  3.27E-01  2.11E-01
   527.50       0.00E+00  0.00E+00  0.00E+00  0.00E+00  3.86E-06  3.87E-04  1.86E-02  4.28E-01  3.32E-01  2.21E-01
   532.50       0.00E+00  0.00E+00  0.00E+00  0.00E+00  5.28E-06  3.27E-04  1.76E-02  4.20E-01  3.33E-01  2.29E-01
   537.50       0.00E+00  0.00E+00  0.00E+00  0.00E+00  2.92E-06  2.95E-04  1.65E-02  4.10E-01  3.36E-01  2.36E-01
   542.50       0.00E+00  0.00E+00  0.00E+00  0.00E+00  1.38E-06  2.98E-04  1.53E-02  3.95E-01  3.44E-01  2.46E-01
   547.50       0.00E+00  0.00E+00  0.00E+00  0.00E+00  1.96E-06  2.25E-04  1.43E-02  3.82E-01  3.45E-01  2.59E-01
   552.50       0.00E+00  0.00E+00  0.00E+00  0.00E+00  1.26E-06  2.34E-04  1.35E-02  3.71E-01  3.50E-01  2.65E-01
   557.50       0.00E+00  0.00E+00  0.00E+00  0.00E+00  1.25E-06  2.01E-04  1.23E-02  3.61E-01  3.51E-01  2.76E-01
   562.50       0.00E+00  0.00E+00  0.00E+00  0.00E+00  1.94E-06  1.91E-04  1.21E-02  3.51E-01  3.53E-01  2.83E-01
   567.50       0.00E+00  0.00E+00  0.00E+00  0.00E+00  1.67E-06  1.56E-04  1.11E-02  3.41E-01  3.54E-01  2.94E-01
   572.50       0.00E+00  0.00E+00  0.00E+00  0.00E+00  4.27E-07  1.64E-04  1.04E-02  3.33E-01  3.53E-01  3.03E-01
   577.50       0.00E+00  0.00E+00  0.00E+00  0.00E+00  8.46E-07  1.56E-04  9.75E-03  3.16E-01  3.59E-01  3.15E-01
   582.50       0.00E+00  0.00E+00  0.00E+00  0.00E+00  1.06E-06  1.22E-04  8.79E-03  3.06E-01  3.61E-01  3.25E-01
   587.50       0.00E+00  0.00E+00  0.00E+00  0.00E+00  7.82E-07  1.08E-04  8.12E-03  2.95E-01  3.61E-01  3.36E-01
   592.50       0.00E+00  0.00E+00  0.00E+00  0.00E+00  1.67E-07  9.19E-05  7.79E-03  2.87E-01  3.63E-01  3.43E-01
   597.50       0.00E+00  0.00E+00  0.00E+00  0.00E+00  1.25E-06  9.14E-05  7.32E-03  2.78E-01  3.63E-01  3.51E-01
   602.50       0.00E+00  0.00E+00  0.00E+00  0.00E+00  8.02E-08  8.43E-05  6.76E-03  2.69E-01  3.63E-01  3.62E-01
   607.50       0.00E+00  0.00E+00  0.00E+00  0.00E+00  1.66E-07  8.19E-05  6.35E-03  2.60E-01  3.62E-01  3.72E-01
   612.50       0.00E+00  0.00E+00  0.00E+00  0.00E+00  0.00E+00  7.04E-05  5.90E-03  2.50E-01  3.65E-01  3.79E-01
   617.50       0.00E+00  0.00E+00  0.00E+00  0.00E+00  0.00E+00  5.87E-05  5.59E-03  2.40E-01  3.62E-01  3.92E-01
   622.50       0.00E+00  0.00E+00  0.00E+00  0.00E+00  3.16E-07  4.34E-05  5.04E-03  2.31E-01  3.62E-01  4.02E-01
   627.50       0.00E+00  0.00E+00  0.00E+00  0.00E+00  8.16E-07  4.35E-05  4.83E-03  2.20E-01  3.63E-01  4.13E-01
   632.50       0.00E+00  0.00E+00  0.00E+00  0.00E+00  0.00E+00  4.96E-05  4.59E-03  2.11E-01  3.60E-01  4.25E-01
   637.50       0.00E+00  0.00E+00  0.00E+00  0.00E+00  3.77E-08  4.71E-05  4.27E-03  2.05E-01  3.58E-01  4.33E-01
   642.50       0.00E+00  0.00E+00  0.00E+00  0.00E+00  4.97E-07  4.05E-05  3.98E-03  1.98E-01  3.55E-01  4.43E-01
   647.50       0.00E+00  0.00E+00  0.00E+00  0.00E+00  8.18E-08  3.69E-05  3.65E-03  1.88E-01  3.54E-01  4.54E-01
   652.50       0.00E+00  0.00E+00  0.00E+00  0.00E+00  2.15E-07  3.19E-05  3.45E-03  1.83E-01  3.52E-01  4.62E-01
   657.50       0.00E+00  0.00E+00  0.00E+00  0.00E+00  1.93E-07  2.90E-05  3.25E-03  1.78E-01  3.53E-01  4.66E-01
   662.50       0.00E+00  0.00E+00  0.00E+00  0.00E+00  4.08E-07  2.30E-05  3.07E-03  1.68E-01  3.44E-01  4.85E-01
   667.50       0.00E+00  0.00E+00  0.00E+00  0.00E+00  0.00E+00  3.08E-05  2.78E-03  1.62E-01  3.42E-01  4.93E-01
   672.50       0.00E+00  0.00E+00  0.00E+00  0.00E+00  0.00E+00  2.32E-05  2.57E-03  1.57E-01  3.41E-01  4.99E-01
   677.50       0.00E+00  0.00E+00  0.00E+00  0.00E+00  1.52E-07  2.19E-05  2.35E-03  1.49E-01  3.40E-01  5.09E-01
   682.50       0.00E+00  0.00E+00  0.00E+00  0.00E+00  0.00E+00  1.91E-05  2.23E-03  1.45E-01  3.41E-01  5.12E-01
   687.50       0.00E+00  0.00E+00  0.00E+00  0.00E+00  0.00E+00  1.41E-05  2.17E-03  1.38E-01  3.34E-01  5.26E-01
   692.50       0.00E+00  0.00E+00  0.00E+00  0.00E+00  0.00E+00  1.69E-05  1.96E-03  1.34E-01  3.33E-01  5.30E-01
   697.50       0.00E+00  0.00E+00  0.00E+00  0.00E+00  0.00E+00  1.58E-05  1.77E-03  1.26E-01  3.28E-01  5.44E-01
   702.50       0.00E+00  0.00E+00  0.00E+00  0.00E+00  0.00E+00  1.02E-05  1.75E-03  1.23E-01  3.22E-01  5.53E-01
   707.50       0.00E+00  0.00E+00  0.00E+00  0.00E+00  0.00E+00  1.14E-05  1.61E-03  1.17E-01  3.18E-01  5.64E-01
   712.50       0.00E+00  0.00E+00  0.00E+00  0.00E+00  0.00E+00  1.36E-05  1.51E-03  1.11E-01  3.15E-01  5.73E-01
   717.50       0.00E+00  0.00E+00  0.00E+00  0.00E+00  0.00E+00  2.61E-06  1.37E-03  1.09E-01  3.15E-01  5.75E-01
   722.50       0.00E+00  0.00E+00  0.00E+00  0.00E+00  0.00E+00  9.50E-06  1.27E-03  1.01E-01  3.11E-01  5.86E-01
   727.50       0.00E+00  0.00E+00  0.00E+00  0.00E+00  0.00E+00  9.49E-06  1.21E-03  9.68E-02  3.02E-01  6.00E-01
   732.50       0.00E+00  0.00E+00  0.00E+00  0.00E+00  0.00E+00  3.09E-06  1.12E-03  9.57E-02  3.00E-01  6.04E-01
   737.50       0.00E+00  0.00E+00  0.00E+00  0.00E+00  0.00E+00  3.48E-06  9.75E-04  8.91E-02  2.98E-01  6.12E-01
   742.50       0.00E+00  0.00E+00  0.00E+00  0.00E+00  0.00E+00  7.89E-06  9.12E-04  8.63E-02  2.93E-01  6.19E-01
   747.50       0.00E+00  0.00E+00  0.00E+00  0.00E+00  0.00E+00  2.66E-06  9.70E-04  8.38E-02  2.92E-01  6.23E-01
   752.50       0.00E+00  0.00E+00  0.00E+00  0.00E+00  0.00E+00  2.85E-06  8.64E-04  8.21E-02  2.89E-01  6.28E-01
   757.50       0.00E+00  0.00E+00  0.00E+00  0.00E+00  0.00E+00  4.92E-06  8.33E-04  7.54E-02  2.84E-01  6.39E-01
   762.50       0.00E+00  0.00E+00  0.00E+00  0.00E+00  0.00E+00  9.99E-07  6.77E-04  7.13E-02  2.77E-01  6.51E-01
   767.50       0.00E+00  0.00E+00  0.00E+00  0.00E+00  0.00E+00  3.08E-06  6.98E-04  6.94E-02  2.70E-01  6.59E-01
   772.50       0.00E+00  0.00E+00  0.00E+00  0.00E+00  0.00E+00  2.78E-06  6.61E-04  6.52E-02  2.72E-01  6.62E-01
   777.50       0.00E+00  0.00E+00  0.00E+00  0.00E+00  0.00E+00  3.98E-06  5.73E-04  6.32E-02  2.67E-01  6.69E-01
   782.50       0.00E+00  0.00E+00  0.00E+00  0.00E+00  0.00E+00  1.54E-06  5.46E-04  6.17E-02  2.64E-01  6.73E-01
   787.50       0.00E+00  0.00E+00  0.00E+00  0.00E+00  0.00E+00  4.27E-07  4.58E-04  5.74E-02  2.58E-01  6.84E-01
   792.50       0.00E+00  0.00E+00  0.00E+00  0.00E+00  0.00E+00  3.36E-06  4.82E-04  5.56E-02  2.55E-01  6.88E-01
   797.50       0.00E+00  0.00E+00  0.00E+00  0.00E+00  0.00E+00  2.12E-06  4.39E-04  5.35E-02  2.52E-01  6.94E-01
   802.50       0.00E+00  0.00E+00  0.00E+00  0.00E+00  0.00E+00  1.69E-06  4.02E-04  5.13E-02  2.45E-01  7.03E-01
   807.50       0.00E+00  0.00E+00  0.00E+00  0.00E+00  0.00E+00  2.90E-07  4.19E-04  5.00E-02  2.42E-01  7.08E-01
   812.50       0.00E+00  0.00E+00  0.00E+00  0.00E+00  0.00E+00  1.57E-06  3.56E-04  4.71E-02  2.38E-01  7.14E-01
   817.50       0.00E+00  0.00E+00  0.00E+00  0.00E+00  0.00E+00  2.31E-06  3.41E-04  4.32E-02  2.35E-01  7.22E-01
   822.50       0.00E+00  0.00E+00  0.00E+00  0.00E+00  0.00E+00  4.54E-07  3.16E-04  4.13E-02  2.30E-01  7.28E-01
   827.50       0.00E+00  0.00E+00  0.00E+00  0.00E+00  0.00E+00  2.51E-06  2.90E-04  4.05E-02  2.27E-01  7.32E-01
   832.50       0.00E+00  0.00E+00  0.00E+00  0.00E+00  0.00E+00  8.83E-07  2.70E-04  3.77E-02  2.26E-01  7.36E-01
   837.50       0.00E+00  0.00E+00  0.00E+00  0.00E+00  0.00E+00  3.96E-06  2.47E-04  3.72E-02  2.16E-01  7.46E-01
   842.50       0.00E+00  0.00E+00  0.00E+00  0.00E+00  0.00E+00  0.00E+00  2.35E-04  3.59E-02  2.20E-01  7.43E-01
