Figure 3. Sulfur charge state distribution as a function of ion energy.  The high charge state peaks have dramatically shifted to lower energies than previous models produced. Ozak et al. (2010) had the peaks of S^{6+} and S^{14+} at ∼500 keV/u and ∼2.2 MeV/u, respectively.  Due to the use of newly developed SIM cross-sections, the peaks have now shifted down to energies of ∼275keV/u and ∼900 keV/u, respectively.

 Energy [keV/u]        S        S+       S2+       S3+       S4+       S5+       S6+       S7+       S8+       S9+      S10+      S11+      S12+      S13+      S14+      S15+      S16+
     1.50       6.35E-01  2.47E-01  1.16E-01  2.36E-03  3.71E-05  4.14E-07  0.00E+00  0.00E+00  0.00E+00  0.00E+00  0.00E+00  0.00E+00  0.00E+00  0.00E+00  0.00E+00  0.00E+00  0.00E+00
     2.50       5.51E-01  3.02E-01  1.40E-01  6.00E-03  1.23E-04  1.45E-06  0.00E+00  0.00E+00  0.00E+00  0.00E+00  0.00E+00  0.00E+00  0.00E+00  0.00E+00  0.00E+00  0.00E+00  0.00E+00
     3.50       5.18E-01  3.22E-01  1.50E-01  9.81E-03  2.08E-04  4.32E-06  0.00E+00  0.00E+00  0.00E+00  0.00E+00  0.00E+00  0.00E+00  0.00E+00  0.00E+00  0.00E+00  0.00E+00  0.00E+00
     4.50       4.94E-01  3.35E-01  1.57E-01  1.37E-02  3.11E-04  7.21E-06  0.00E+00  0.00E+00  0.00E+00  0.00E+00  0.00E+00  0.00E+00  0.00E+00  0.00E+00  0.00E+00  0.00E+00  0.00E+00
     5.50       4.74E-01  3.44E-01  1.63E-01  1.78E-02  4.81E-04  1.51E-05  2.84E-07  0.00E+00  0.00E+00  0.00E+00  0.00E+00  0.00E+00  0.00E+00  0.00E+00  0.00E+00  0.00E+00  0.00E+00
     6.50       4.57E-01  3.52E-01  1.69E-01  2.16E-02  6.42E-04  2.16E-05  0.00E+00  0.00E+00  0.00E+00  0.00E+00  0.00E+00  0.00E+00  0.00E+00  0.00E+00  0.00E+00  0.00E+00  0.00E+00
     7.50       4.41E-01  3.59E-01  1.74E-01  2.53E-02  7.95E-04  2.95E-05  2.19E-07  0.00E+00  0.00E+00  0.00E+00  0.00E+00  0.00E+00  0.00E+00  0.00E+00  0.00E+00  0.00E+00  0.00E+00
     8.50       4.27E-01  3.65E-01  1.79E-01  2.88E-02  1.01E-03  4.04E-05  6.38E-07  0.00E+00  0.00E+00  0.00E+00  0.00E+00  0.00E+00  0.00E+00  0.00E+00  0.00E+00  0.00E+00  0.00E+00
     9.50       4.13E-01  3.70E-01  1.83E-01  3.22E-02  1.23E-03  5.53E-05  5.75E-07  0.00E+00  0.00E+00  0.00E+00  0.00E+00  0.00E+00  0.00E+00  0.00E+00  0.00E+00  0.00E+00  0.00E+00
    10.50       4.03E-01  3.75E-01  1.86E-01  3.45E-02  1.43E-03  6.66E-05  1.41E-07  0.00E+00  0.00E+00  0.00E+00  0.00E+00  0.00E+00  0.00E+00  0.00E+00  0.00E+00  0.00E+00  0.00E+00
    11.50       3.94E-01  3.80E-01  1.88E-01  3.61E-02  1.67E-03  8.07E-05  6.46E-07  0.00E+00  0.00E+00  0.00E+00  0.00E+00  0.00E+00  0.00E+00  0.00E+00  0.00E+00  0.00E+00  0.00E+00
    12.50       3.85E-01  3.85E-01  1.90E-01  3.79E-02  1.90E-03  9.90E-05  1.78E-06  0.00E+00  0.00E+00  0.00E+00  0.00E+00  0.00E+00  0.00E+00  0.00E+00  0.00E+00  0.00E+00  0.00E+00
    13.50       3.79E-01  3.89E-01  1.91E-01  3.92E-02  2.11E-03  1.09E-04  1.89E-06  0.00E+00  0.00E+00  0.00E+00  0.00E+00  0.00E+00  0.00E+00  0.00E+00  0.00E+00  0.00E+00  0.00E+00
    14.50       3.73E-01  3.92E-01  1.92E-01  4.05E-02  2.37E-03  1.27E-04  1.93E-06  7.75E-08  0.00E+00  0.00E+00  0.00E+00  0.00E+00  0.00E+00  0.00E+00  0.00E+00  0.00E+00  0.00E+00
    15.50       3.67E-01  3.95E-01  1.94E-01  4.18E-02  2.63E-03  1.44E-04  2.61E-06  0.00E+00  0.00E+00  0.00E+00  0.00E+00  0.00E+00  0.00E+00  0.00E+00  0.00E+00  0.00E+00  0.00E+00
    16.50       3.61E-01  3.98E-01  1.95E-01  4.31E-02  2.86E-03  1.59E-04  2.24E-06  0.00E+00  0.00E+00  0.00E+00  0.00E+00  0.00E+00  0.00E+00  0.00E+00  0.00E+00  0.00E+00  0.00E+00
    17.50       3.57E-01  4.00E-01  1.96E-01  4.43E-02  3.14E-03  1.80E-04  4.98E-06  0.00E+00  0.00E+00  0.00E+00  0.00E+00  0.00E+00  0.00E+00  0.00E+00  0.00E+00  0.00E+00  0.00E+00
    18.50       3.52E-01  4.01E-01  1.97E-01  4.57E-02  3.41E-03  1.98E-04  4.25E-06  7.85E-08  0.00E+00  0.00E+00  0.00E+00  0.00E+00  0.00E+00  0.00E+00  0.00E+00  0.00E+00  0.00E+00
    19.50       3.47E-01  4.03E-01  1.98E-01  4.68E-02  3.71E-03  2.18E-04  4.98E-06  0.00E+00  0.00E+00  0.00E+00  0.00E+00  0.00E+00  0.00E+00  0.00E+00  0.00E+00  0.00E+00  0.00E+00
    20.50       3.43E-01  4.05E-01  2.00E-01  4.81E-02  4.02E-03  2.34E-04  5.35E-06  0.00E+00  0.00E+00  0.00E+00  0.00E+00  0.00E+00  0.00E+00  0.00E+00  0.00E+00  0.00E+00  0.00E+00
    21.50       3.39E-01  4.06E-01  2.01E-01  4.94E-02  4.32E-03  2.61E-04  6.95E-06  8.55E-08  0.00E+00  0.00E+00  0.00E+00  0.00E+00  0.00E+00  0.00E+00  0.00E+00  0.00E+00  0.00E+00
    22.50       3.34E-01  4.07E-01  2.03E-01  5.08E-02  4.72E-03  2.98E-04  6.91E-06  0.00E+00  0.00E+00  0.00E+00  0.00E+00  0.00E+00  0.00E+00  0.00E+00  0.00E+00  0.00E+00  0.00E+00
    23.50       3.30E-01  4.08E-01  2.04E-01  5.21E-02  5.04E-03  3.34E-04  8.96E-06  0.00E+00  0.00E+00  0.00E+00  0.00E+00  0.00E+00  0.00E+00  0.00E+00  0.00E+00  0.00E+00  0.00E+00
    24.50       3.26E-01  4.09E-01  2.06E-01  5.38E-02  5.43E-03  3.61E-04  1.02E-05  9.30E-08  0.00E+00  0.00E+00  0.00E+00  0.00E+00  0.00E+00  0.00E+00  0.00E+00  0.00E+00  0.00E+00
    25.50       3.21E-01  4.09E-01  2.08E-01  5.52E-02  5.83E-03  3.86E-04  1.17E-05  9.25E-08  0.00E+00  0.00E+00  0.00E+00  0.00E+00  0.00E+00  0.00E+00  0.00E+00  0.00E+00  0.00E+00
    26.50       3.17E-01  4.10E-01  2.10E-01  5.69E-02  6.29E-03  4.34E-04  1.27E-05  0.00E+00  0.00E+00  0.00E+00  0.00E+00  0.00E+00  0.00E+00  0.00E+00  0.00E+00  0.00E+00  0.00E+00
    27.50       3.12E-01  4.10E-01  2.12E-01  5.86E-02  6.72E-03  4.73E-04  1.63E-05  0.00E+00  0.00E+00  0.00E+00  0.00E+00  0.00E+00  0.00E+00  0.00E+00  0.00E+00  0.00E+00  0.00E+00
    28.50       3.08E-01  4.10E-01  2.14E-01  6.04E-02  7.30E-03  5.32E-04  1.91E-05  0.00E+00  0.00E+00  0.00E+00  0.00E+00  0.00E+00  0.00E+00  0.00E+00  0.00E+00  0.00E+00  0.00E+00
    29.50       3.03E-01  4.10E-01  2.16E-01  6.20E-02  7.67E-03  5.68E-04  1.73E-05  1.95E-07  0.00E+00  0.00E+00  0.00E+00  0.00E+00  0.00E+00  0.00E+00  0.00E+00  0.00E+00  0.00E+00
    30.50       2.98E-01  4.10E-01  2.19E-01  6.42E-02  8.37E-03  6.41E-04  1.87E-05  9.90E-08  0.00E+00  0.00E+00  0.00E+00  0.00E+00  0.00E+00  0.00E+00  0.00E+00  0.00E+00  0.00E+00
    31.50       2.93E-01  4.10E-01  2.21E-01  6.61E-02  8.94E-03  6.97E-04  2.48E-05  1.05E-07  0.00E+00  0.00E+00  0.00E+00  0.00E+00  0.00E+00  0.00E+00  0.00E+00  0.00E+00  0.00E+00
    32.50       2.88E-01  4.09E-01  2.24E-01  6.82E-02  9.58E-03  7.61E-04  3.17E-05  0.00E+00  0.00E+00  0.00E+00  0.00E+00  0.00E+00  0.00E+00  0.00E+00  0.00E+00  0.00E+00  0.00E+00
    33.50       2.83E-01  4.09E-01  2.27E-01  7.05E-02  1.03E-02  8.45E-04  3.44E-05  1.01E-07  0.00E+00  0.00E+00  0.00E+00  0.00E+00  0.00E+00  0.00E+00  0.00E+00  0.00E+00  0.00E+00
    34.50       2.78E-01  4.08E-01  2.29E-01  7.25E-02  1.09E-02  9.22E-04  4.06E-05  1.06E-07  0.00E+00  0.00E+00  0.00E+00  0.00E+00  0.00E+00  0.00E+00  0.00E+00  0.00E+00  0.00E+00
    35.50       2.73E-01  4.07E-01  2.32E-01  7.48E-02  1.17E-02  1.00E-03  3.95E-05  0.00E+00  0.00E+00  0.00E+00  0.00E+00  0.00E+00  0.00E+00  0.00E+00  0.00E+00  0.00E+00  0.00E+00
    36.50       2.68E-01  4.06E-01  2.35E-01  7.74E-02  1.25E-02  1.10E-03  4.56E-05  1.13E-07  0.00E+00  0.00E+00  0.00E+00  0.00E+00  0.00E+00  0.00E+00  0.00E+00  0.00E+00  0.00E+00
    37.50       2.63E-01  4.05E-01  2.38E-01  7.96E-02  1.33E-02  1.20E-03  5.27E-05  1.12E-07  0.00E+00  0.00E+00  0.00E+00  0.00E+00  0.00E+00  0.00E+00  0.00E+00  0.00E+00  0.00E+00
    38.50       2.57E-01  4.03E-01  2.41E-01  8.23E-02  1.42E-02  1.31E-03  6.00E-05  3.42E-07  0.00E+00  0.00E+00  0.00E+00  0.00E+00  0.00E+00  0.00E+00  0.00E+00  0.00E+00  0.00E+00
    39.50       2.52E-01  4.02E-01  2.44E-01  8.50E-02  1.51E-02  1.42E-03  7.09E-05  1.18E-07  0.00E+00  0.00E+00  0.00E+00  0.00E+00  0.00E+00  0.00E+00  0.00E+00  0.00E+00  0.00E+00
    40.50       2.47E-01  4.00E-01  2.48E-01  8.79E-02  1.61E-02  1.58E-03  7.90E-05  1.15E-07  0.00E+00  0.00E+00  0.00E+00  0.00E+00  0.00E+00  0.00E+00  0.00E+00  0.00E+00  0.00E+00
    41.50       2.41E-01  3.98E-01  2.51E-01  9.07E-02  1.70E-02  1.67E-03  8.11E-05  4.84E-07  0.00E+00  0.00E+00  0.00E+00  0.00E+00  0.00E+00  0.00E+00  0.00E+00  0.00E+00  0.00E+00
    42.50       2.36E-01  3.96E-01  2.54E-01  9.37E-02  1.83E-02  1.87E-03  9.58E-05  0.00E+00  0.00E+00  0.00E+00  0.00E+00  0.00E+00  0.00E+00  0.00E+00  0.00E+00  0.00E+00  0.00E+00
    43.50       2.31E-01  3.93E-01  2.58E-01  9.67E-02  1.94E-02  2.03E-03  9.49E-05  1.24E-07  0.00E+00  0.00E+00  0.00E+00  0.00E+00  0.00E+00  0.00E+00  0.00E+00  0.00E+00  0.00E+00
    44.50       2.25E-01  3.91E-01  2.61E-01  9.99E-02  2.06E-02  2.17E-03  1.09E-04  3.76E-07  0.00E+00  0.00E+00  0.00E+00  0.00E+00  0.00E+00  0.00E+00  0.00E+00  0.00E+00  0.00E+00
    45.50       2.19E-01  3.88E-01  2.64E-01  1.03E-01  2.18E-02  2.38E-03  1.20E-04  6.18E-07  0.00E+00  0.00E+00  0.00E+00  0.00E+00  0.00E+00  0.00E+00  0.00E+00  0.00E+00  0.00E+00
    46.50       2.14E-01  3.85E-01  2.68E-01  1.07E-01  2.33E-02  2.62E-03  1.45E-04  3.70E-07  0.00E+00  0.00E+00  0.00E+00  0.00E+00  0.00E+00  0.00E+00  0.00E+00  0.00E+00  0.00E+00
    47.50       2.09E-01  3.82E-01  2.71E-01  1.10E-01  2.45E-02  2.79E-03  1.47E-04  7.78E-07  0.00E+00  0.00E+00  0.00E+00  0.00E+00  0.00E+00  0.00E+00  0.00E+00  0.00E+00  0.00E+00
    48.50       2.03E-01  3.79E-01  2.75E-01  1.14E-01  2.61E-02  3.02E-03  1.68E-04  1.17E-06  0.00E+00  0.00E+00  0.00E+00  0.00E+00  0.00E+00  0.00E+00  0.00E+00  0.00E+00  0.00E+00
    49.50       1.99E-01  3.76E-01  2.78E-01  1.17E-01  2.74E-02  3.30E-03  1.81E-04  9.18E-07  0.00E+00  0.00E+00  0.00E+00  0.00E+00  0.00E+00  0.00E+00  0.00E+00  0.00E+00  0.00E+00
    50.50       1.92E-01  3.72E-01  2.81E-01  1.21E-01  2.91E-02  3.54E-03  1.93E-04  6.62E-07  0.00E+00  0.00E+00  0.00E+00  0.00E+00  0.00E+00  0.00E+00  0.00E+00  0.00E+00  0.00E+00
    51.50       1.87E-01  3.68E-01  2.85E-01  1.25E-01  3.07E-02  3.84E-03  2.11E-04  8.02E-07  0.00E+00  0.00E+00  0.00E+00  0.00E+00  0.00E+00  0.00E+00  0.00E+00  0.00E+00  0.00E+00
    52.50       1.80E-01  3.64E-01  2.89E-01  1.30E-01  3.26E-02  4.15E-03  2.32E-04  1.48E-06  0.00E+00  0.00E+00  0.00E+00  0.00E+00  0.00E+00  0.00E+00  0.00E+00  0.00E+00  0.00E+00
    53.50       1.74E-01  3.60E-01  2.92E-01  1.35E-01  3.47E-02  4.54E-03  2.56E-04  1.51E-06  0.00E+00  0.00E+00  0.00E+00  0.00E+00  0.00E+00  0.00E+00  0.00E+00  0.00E+00  0.00E+00
    54.50       1.68E-01  3.55E-01  2.96E-01  1.40E-01  3.66E-02  4.88E-03  2.80E-04  1.81E-06  0.00E+00  0.00E+00  0.00E+00  0.00E+00  0.00E+00  0.00E+00  0.00E+00  0.00E+00  0.00E+00
    55.50       1.62E-01  3.50E-01  2.99E-01  1.45E-01  3.86E-02  5.29E-03  3.10E-04  1.68E-06  1.40E-07  0.00E+00  0.00E+00  0.00E+00  0.00E+00  0.00E+00  0.00E+00  0.00E+00  0.00E+00
    56.50       1.56E-01  3.45E-01  3.02E-01  1.50E-01  4.08E-02  5.77E-03  3.50E-04  2.02E-06  0.00E+00  0.00E+00  0.00E+00  0.00E+00  0.00E+00  0.00E+00  0.00E+00  0.00E+00  0.00E+00
    57.50       1.50E-01  3.40E-01  3.05E-01  1.55E-01  4.31E-02  6.19E-03  3.54E-04  1.44E-06  0.00E+00  0.00E+00  0.00E+00  0.00E+00  0.00E+00  0.00E+00  0.00E+00  0.00E+00  0.00E+00
    58.50       1.45E-01  3.35E-01  3.08E-01  1.60E-01  4.52E-02  6.59E-03  4.12E-04  2.61E-06  0.00E+00  0.00E+00  0.00E+00  0.00E+00  0.00E+00  0.00E+00  0.00E+00  0.00E+00  0.00E+00
    59.50       1.39E-01  3.30E-01  3.10E-01  1.65E-01  4.78E-02  7.17E-03  4.41E-04  2.95E-06  0.00E+00  0.00E+00  0.00E+00  0.00E+00  0.00E+00  0.00E+00  0.00E+00  0.00E+00  0.00E+00
    60.50       1.34E-01  3.25E-01  3.13E-01  1.70E-01  5.02E-02  7.77E-03  4.69E-04  1.65E-06  0.00E+00  0.00E+00  0.00E+00  0.00E+00  0.00E+00  0.00E+00  0.00E+00  0.00E+00  0.00E+00
    61.50       1.29E-01  3.19E-01  3.16E-01  1.76E-01  5.24E-02  8.31E-03  5.23E-04  3.88E-06  0.00E+00  0.00E+00  0.00E+00  0.00E+00  0.00E+00  0.00E+00  0.00E+00  0.00E+00  0.00E+00
    62.50       1.23E-01  3.13E-01  3.18E-01  1.81E-01  5.52E-02  8.99E-03  5.69E-04  5.24E-06  0.00E+00  0.00E+00  0.00E+00  0.00E+00  0.00E+00  0.00E+00  0.00E+00  0.00E+00  0.00E+00
    63.50       1.18E-01  3.06E-01  3.19E-01  1.88E-01  5.83E-02  9.69E-03  6.40E-04  4.08E-06  0.00E+00  0.00E+00  0.00E+00  0.00E+00  0.00E+00  0.00E+00  0.00E+00  0.00E+00  0.00E+00
    64.50       1.13E-01  3.02E-01  3.21E-01  1.92E-01  6.04E-02  1.02E-02  6.87E-04  5.09E-06  1.53E-07  0.00E+00  0.00E+00  0.00E+00  0.00E+00  0.00E+00  0.00E+00  0.00E+00  0.00E+00
    65.50       1.09E-01  2.95E-01  3.23E-01  1.98E-01  6.35E-02  1.10E-02  7.53E-04  5.27E-06  1.52E-07  0.00E+00  0.00E+00  0.00E+00  0.00E+00  0.00E+00  0.00E+00  0.00E+00  0.00E+00
    66.50       1.04E-01  2.89E-01  3.24E-01  2.04E-01  6.66E-02  1.19E-02  7.84E-04  8.29E-06  3.06E-07  0.00E+00  0.00E+00  0.00E+00  0.00E+00  0.00E+00  0.00E+00  0.00E+00  0.00E+00
    67.50       9.95E-02  2.83E-01  3.25E-01  2.09E-01  6.95E-02  1.26E-02  8.72E-04  6.18E-06  0.00E+00  0.00E+00  0.00E+00  0.00E+00  0.00E+00  0.00E+00  0.00E+00  0.00E+00  0.00E+00
    68.50       9.49E-02  2.77E-01  3.26E-01  2.15E-01  7.30E-02  1.35E-02  9.86E-04  7.68E-06  1.58E-07  0.00E+00  0.00E+00  0.00E+00  0.00E+00  0.00E+00  0.00E+00  0.00E+00  0.00E+00
    69.50       9.08E-02  2.70E-01  3.26E-01  2.21E-01  7.62E-02  1.45E-02  1.10E-03  1.05E-05  0.00E+00  0.00E+00  0.00E+00  0.00E+00  0.00E+00  0.00E+00  0.00E+00  0.00E+00  0.00E+00
    70.50       8.66E-02  2.64E-01  3.27E-01  2.27E-01  7.93E-02  1.54E-02  1.19E-03  1.26E-05  1.61E-07  0.00E+00  0.00E+00  0.00E+00  0.00E+00  0.00E+00  0.00E+00  0.00E+00  0.00E+00
    71.50       8.26E-02  2.58E-01  3.26E-01  2.32E-01  8.28E-02  1.65E-02  1.28E-03  1.25E-05  1.65E-07  0.00E+00  0.00E+00  0.00E+00  0.00E+00  0.00E+00  0.00E+00  0.00E+00  0.00E+00
    72.50       7.91E-02  2.52E-01  3.26E-01  2.38E-01  8.59E-02  1.75E-02  1.41E-03  1.29E-05  3.25E-07  0.00E+00  0.00E+00  0.00E+00  0.00E+00  0.00E+00  0.00E+00  0.00E+00  0.00E+00
    73.50       7.55E-02  2.46E-01  3.25E-01  2.43E-01  8.99E-02  1.87E-02  1.51E-03  1.10E-05  0.00E+00  0.00E+00  0.00E+00  0.00E+00  0.00E+00  0.00E+00  0.00E+00  0.00E+00  0.00E+00
    74.50       7.19E-02  2.39E-01  3.24E-01  2.49E-01  9.40E-02  1.99E-02  1.63E-03  2.17E-05  1.71E-07  0.00E+00  0.00E+00  0.00E+00  0.00E+00  0.00E+00  0.00E+00  0.00E+00  0.00E+00
    75.50       6.83E-02  2.33E-01  3.23E-01  2.55E-01  9.79E-02  2.12E-02  1.85E-03  2.25E-05  6.59E-07  0.00E+00  0.00E+00  0.00E+00  0.00E+00  0.00E+00  0.00E+00  0.00E+00  0.00E+00
    76.50       6.53E-02  2.27E-01  3.21E-01  2.60E-01  1.02E-01  2.26E-02  1.99E-03  2.03E-05  3.37E-07  0.00E+00  0.00E+00  0.00E+00  0.00E+00  0.00E+00  0.00E+00  0.00E+00  0.00E+00
    77.50       6.21E-02  2.21E-01  3.20E-01  2.65E-01  1.06E-01  2.39E-02  2.14E-03  2.56E-05  6.74E-07  0.00E+00  0.00E+00  0.00E+00  0.00E+00  0.00E+00  0.00E+00  0.00E+00  0.00E+00
    78.50       5.95E-02  2.15E-01  3.17E-01  2.70E-01  1.11E-01  2.55E-02  2.40E-03  2.79E-05  1.02E-06  0.00E+00  0.00E+00  0.00E+00  0.00E+00  0.00E+00  0.00E+00  0.00E+00  0.00E+00
    79.50       5.67E-02  2.08E-01  3.15E-01  2.75E-01  1.15E-01  2.71E-02  2.54E-03  3.10E-05  6.94E-07  0.00E+00  0.00E+00  0.00E+00  0.00E+00  0.00E+00  0.00E+00  0.00E+00  0.00E+00
    80.50       5.41E-02  2.02E-01  3.11E-01  2.80E-01  1.20E-01  2.89E-02  2.88E-03  3.87E-05  1.64E-07  0.00E+00  0.00E+00  0.00E+00  0.00E+00  0.00E+00  0.00E+00  0.00E+00  0.00E+00
    81.50       5.15E-02  1.96E-01  3.09E-01  2.85E-01  1.25E-01  3.05E-02  3.06E-03  4.37E-05  1.73E-06  0.00E+00  0.00E+00  0.00E+00  0.00E+00  0.00E+00  0.00E+00  0.00E+00  0.00E+00
    82.50       4.92E-02  1.90E-01  3.06E-01  2.88E-01  1.30E-01  3.25E-02  3.41E-03  4.37E-05  8.48E-07  0.00E+00  0.00E+00  0.00E+00  0.00E+00  0.00E+00  0.00E+00  0.00E+00  0.00E+00
    83.50       4.70E-02  1.85E-01  3.02E-01  2.93E-01  1.35E-01  3.44E-02  3.73E-03  4.69E-05  8.73E-07  0.00E+00  0.00E+00  0.00E+00  0.00E+00  0.00E+00  0.00E+00  0.00E+00  0.00E+00
    84.50       4.48E-02  1.79E-01  2.98E-01  2.97E-01  1.40E-01  3.63E-02  4.03E-03  4.47E-05  8.63E-07  0.00E+00  0.00E+00  0.00E+00  0.00E+00  0.00E+00  0.00E+00  0.00E+00  0.00E+00
    85.50       4.26E-02  1.73E-01  2.94E-01  3.01E-01  1.46E-01  3.85E-02  4.32E-03  6.96E-05  2.47E-06  1.83E-07  0.00E+00  0.00E+00  0.00E+00  0.00E+00  0.00E+00  0.00E+00  0.00E+00
    86.50       4.08E-02  1.67E-01  2.91E-01  3.04E-01  1.51E-01  4.07E-02  4.73E-03  6.81E-05  3.46E-06  0.00E+00  0.00E+00  0.00E+00  0.00E+00  0.00E+00  0.00E+00  0.00E+00  0.00E+00
    87.50       3.87E-02  1.62E-01  2.87E-01  3.08E-01  1.57E-01  4.27E-02  5.18E-03  7.11E-05  1.58E-06  0.00E+00  0.00E+00  0.00E+00  0.00E+00  0.00E+00  0.00E+00  0.00E+00  0.00E+00
    88.50       3.69E-02  1.57E-01  2.82E-01  3.11E-01  1.62E-01  4.49E-02  5.52E-03  8.87E-05  3.11E-06  1.81E-07  0.00E+00  0.00E+00  0.00E+00  0.00E+00  0.00E+00  0.00E+00  0.00E+00
    89.50       3.52E-02  1.51E-01  2.78E-01  3.14E-01  1.68E-01  4.74E-02  6.04E-03  9.92E-05  3.17E-06  1.78E-07  0.00E+00  0.00E+00  0.00E+00  0.00E+00  0.00E+00  0.00E+00  0.00E+00
    90.50       3.35E-02  1.46E-01  2.73E-01  3.16E-01  1.74E-01  5.01E-02  6.51E-03  1.05E-04  3.31E-06  0.00E+00  0.00E+00  0.00E+00  0.00E+00  0.00E+00  0.00E+00  0.00E+00  0.00E+00
    91.50       3.19E-02  1.42E-01  2.68E-01  3.18E-01  1.81E-01  5.26E-02  7.09E-03  1.14E-04  2.26E-06  0.00E+00  0.00E+00  0.00E+00  0.00E+00  0.00E+00  0.00E+00  0.00E+00  0.00E+00
    92.50       3.02E-02  1.37E-01  2.63E-01  3.20E-01  1.87E-01  5.52E-02  7.46E-03  1.18E-04  4.26E-06  0.00E+00  0.00E+00  0.00E+00  0.00E+00  0.00E+00  0.00E+00  0.00E+00  0.00E+00
    93.50       2.91E-02  1.32E-01  2.59E-01  3.22E-01  1.92E-01  5.80E-02  8.12E-03  1.42E-04  5.30E-06  0.00E+00  0.00E+00  0.00E+00  0.00E+00  0.00E+00  0.00E+00  0.00E+00  0.00E+00
    94.50       2.75E-02  1.27E-01  2.54E-01  3.23E-01  1.99E-01  6.08E-02  8.73E-03  1.33E-04  2.29E-06  0.00E+00  0.00E+00  0.00E+00  0.00E+00  0.00E+00  0.00E+00  0.00E+00  0.00E+00
    95.50       2.63E-02  1.23E-01  2.49E-01  3.24E-01  2.05E-01  6.37E-02  9.44E-03  1.51E-04  4.42E-06  1.79E-07  0.00E+00  0.00E+00  0.00E+00  0.00E+00  0.00E+00  0.00E+00  0.00E+00
    96.50       2.51E-02  1.18E-01  2.43E-01  3.26E-01  2.12E-01  6.67E-02  1.01E-02  1.84E-04  6.76E-06  0.00E+00  0.00E+00  0.00E+00  0.00E+00  0.00E+00  0.00E+00  0.00E+00  0.00E+00
    97.50       2.38E-02  1.13E-01  2.39E-01  3.25E-01  2.18E-01  6.98E-02  1.08E-02  1.93E-04  6.46E-06  1.86E-07  0.00E+00  0.00E+00  0.00E+00  0.00E+00  0.00E+00  0.00E+00  0.00E+00
    98.50       2.26E-02  1.09E-01  2.33E-01  3.26E-01  2.24E-01  7.32E-02  1.17E-02  2.26E-04  8.20E-06  1.67E-07  0.00E+00  0.00E+00  0.00E+00  0.00E+00  0.00E+00  0.00E+00  0.00E+00
    99.50       2.17E-02  1.05E-01  2.28E-01  3.27E-01  2.30E-01  7.61E-02  1.24E-02  2.33E-04  9.95E-06  0.00E+00  0.00E+00  0.00E+00  0.00E+00  0.00E+00  0.00E+00  0.00E+00  0.00E+00
   100.50       2.05E-02  1.01E-01  2.23E-01  3.26E-01  2.36E-01  7.96E-02  1.32E-02  2.44E-04  9.39E-06  0.00E+00  0.00E+00  0.00E+00  0.00E+00  0.00E+00  0.00E+00  0.00E+00  0.00E+00
   101.50       1.91E-02  9.62E-02  2.18E-01  3.26E-01  2.43E-01  8.33E-02  1.41E-02  3.04E-04  8.97E-06  0.00E+00  0.00E+00  0.00E+00  0.00E+00  0.00E+00  0.00E+00  0.00E+00  0.00E+00
   102.50       1.81E-02  9.20E-02  2.13E-01  3.25E-01  2.49E-01  8.74E-02  1.51E-02  3.22E-04  1.53E-05  5.25E-07  0.00E+00  0.00E+00  0.00E+00  0.00E+00  0.00E+00  0.00E+00  0.00E+00
   103.50       1.69E-02  8.79E-02  2.08E-01  3.24E-01  2.56E-01  9.12E-02  1.61E-02  3.39E-04  1.83E-05  0.00E+00  0.00E+00  0.00E+00  0.00E+00  0.00E+00  0.00E+00  0.00E+00  0.00E+00
   104.50       1.58E-02  8.42E-02  2.03E-01  3.23E-01  2.62E-01  9.46E-02  1.71E-02  3.82E-04  1.93E-05  0.00E+00  0.00E+00  0.00E+00  0.00E+00  0.00E+00  0.00E+00  0.00E+00  0.00E+00
